sample1,,sample2,,sample3,,sample4,,sample5,,sample6,,sample7,,
Wavelength (nm),Abs,Wavelength (nm),Abs,Wavelength (nm),Abs,Wavelength (nm),Abs,Wavelength (nm),Abs,Wavelength (nm),Abs,Wavelength (nm),Abs,
799.9847412,0.003772703931,799.9847412,-0.0004767648352,799.9847412,0.04179389402,799.9847412,0.05456389114,799.9847412,0.04469827563,799.9847412,0.01485562883,799.9847412,0.1368742287,
798.0083618,0.002547361422,798.0083618,-0.001048822771,798.0083618,0.04256881028,798.0083618,0.05329044163,798.0083618,0.04606769979,798.0083618,0.01270751003,798.0083618,0.1370222569,
795.9957275,0.001127320225,795.9957275,0.0006717942306,795.9957275,0.04244451225,795.9957275,0.05272782966,795.9957275,0.04478364438,795.9957275,0.0152321998,795.9957275,0.136978969,
794.0162354,0.002276830375,794.0162354,0.001688844291,794.0162354,0.04243483767,794.0162354,0.05463469401,794.0162354,0.04521139339,794.0162354,0.01512036286,794.0162354,0.1357629001,
792.0004272,0.003463545581,792.0004272,-0.00167454069,792.0004272,0.04227240011,792.0004272,0.05541159213,792.0004272,0.0461897552,792.0004272,0.01499188785,792.0004272,0.1361447722,
789.9830322,0.002294525737,789.9830322,-1.397819779E-005,789.9830322,0.0433611311,789.9830322,0.0554760024,789.9830322,0.0472253859,789.9830322,0.01447783224,789.9830322,0.1366162449,
787.9989014,0.001927260892,787.9989014,-9.457702981E-005,787.9989014,0.04424875975,787.9989014,0.05428848788,787.9989014,0.04696281254,787.9989014,0.01412317436,787.9989014,0.1386029869,
786.0131836,0.003046202241,786.0131836,0.0003034636611,786.0131836,0.04311972484,786.0131836,0.05580558255,786.0131836,0.04614251107,786.0131836,0.01516520698,786.0131836,0.1364704072,
783.9910278,0.003192677861,783.9910278,0.0007178672822,783.9910278,0.04176944122,783.9910278,0.05533260852,783.9910278,0.04783862084,783.9910278,0.01539625414,783.9910278,0.1361187696,
782.0021973,0.001999315806,782.0021973,-0.0004598019295,782.0021973,0.04157437757,782.0021973,0.05587402731,782.0021973,0.04683742672,782.0021973,0.0157865826,782.0021973,0.1371768713,
780.0118408,0.001756311278,780.0118408,-3.62906103E-005,780.0118408,0.04241962358,780.0118408,0.05482082069,780.0118408,0.04664134234,780.0118408,0.01527949516,780.0118408,0.1344530582,
777.9850464,0.002016115701,777.9850464,0.0003913391265,777.9850464,0.04320175201,777.9850464,0.05631163716,777.9850464,0.04654405266,777.9850464,0.01399780065,777.9850464,0.1373026073,
775.9915771,0.002576291095,775.9915771,0.0003617517068,775.9915771,0.04256221652,775.9915771,0.05674989522,775.9915771,0.0488438122,775.9915771,0.01321229432,775.9915771,0.137101084,
773.9966431,0.001194700133,773.9966431,-1.542776226E-005,773.9966431,0.043163836,773.9966431,0.05531843752,773.9966431,0.04792868346,773.9966431,0.01585501246,773.9966431,0.1378597766,
772.0002441,0.001178684761,772.0002441,0.0005476780934,772.0002441,0.04231620207,772.0002441,0.05549382791,772.0002441,0.04695124924,772.0002441,0.01401777193,772.0002441,0.1372775286,
770.0021973,0.001720809261,770.0021973,0.0005759043852,770.0021973,0.04337505996,770.0021973,0.05739213154,770.0021973,0.04728518426,770.0021973,0.01436597575,770.0021973,0.137410745,
768.0027466,0.00140381034,768.0027466,0.0003250681912,768.0027466,0.04353453591,768.0027466,0.05696326122,768.0027466,0.04648473114,768.0027466,0.0145879779,768.0027466,0.1365062743,
766.00177,0.0002675880096,766.00177,0.0001072070227,766.00177,0.04274058342,766.00177,0.05674320087,766.00177,0.04763055965,766.00177,0.01438390277,766.00177,0.1358270943,
763.9992676,0.001283483114,763.9992676,-0.0002933959768,763.9992676,0.04189265892,763.9992676,0.05649857596,763.9992676,0.047352992,763.9992676,0.0132167777,763.9992676,0.1381308734,
761.9953003,0.0002346420224,761.9953003,1.540242374E-005,761.9953003,0.04162158445,761.9953003,0.05567935482,761.9953003,0.04889447615,761.9953003,0.01504770573,761.9953003,0.1379318982,
759.9898682,0.001010805834,759.9898682,0.001269437606,759.9898682,0.04177177697,759.9898682,0.05775829777,759.9898682,0.04796401039,759.9898682,0.01433491241,759.9898682,0.1384350359,
757.9829102,0.0001626978919,757.9829102,0.0002042624255,757.9829102,0.04051491991,757.9829102,0.05654928833,757.9829102,0.04749377444,757.9829102,0.01451286767,757.9829102,0.1366048604,
756.0097046,0.0001004232836,756.0097046,-0.0007330411463,756.0097046,0.04119478911,756.0097046,0.05590502918,756.0097046,0.04629753157,756.0097046,0.01296698954,756.0097046,0.1357331723,
753.9997559,-0.00184758415,753.9997559,-0.0009814697551,753.9997559,0.04053458571,753.9997559,0.05572555587,753.9997559,0.04748693109,753.9997559,0.01353549771,753.9997559,0.1363089979,
751.9884644,-0.001083373209,751.9884644,-0.001390385325,751.9884644,0.0398491919,751.9884644,0.05603282526,751.9884644,0.04678708315,751.9884644,0.01320031285,751.9884644,0.1365534961,
750.0109863,-0.00148734299,750.0109863,-0.0006408259505,750.0109863,0.0396656841,750.0109863,0.05520307645,750.0109863,0.04607555643,750.0109863,0.01314438507,750.0109863,0.1361795217,
747.9967041,-0.003277346957,747.9967041,-0.002092027338,747.9967041,0.03908579424,747.9967041,0.0544578582,747.9967041,0.04676675797,747.9967041,0.01153453439,747.9967041,0.1343612373,
746.0163574,-0.003082460025,746.0163574,-0.001537954668,746.0163574,0.03911440074,746.0163574,0.05466548726,746.0163574,0.04521268606,746.0163574,0.01096555963,746.0163574,0.1330816001,
743.9991455,-0.003725019284,743.9991455,-0.004281231668,743.9991455,0.0385511145,743.9991455,0.05353643,743.9991455,0.04450040311,743.9991455,0.01011539996,743.9991455,0.1335834861,
742.0159912,-0.005119256675,742.0159912,-0.004520005547,742.0159912,0.0367924273,742.0159912,0.05283841118,742.0159912,0.04407484084,742.0159912,0.008990751579,742.0159912,0.1322727203,
739.9959717,-0.005932125729,739.9959717,-0.004312860779,739.9959717,0.03531967849,739.9959717,0.05221731961,739.9959717,0.04354231805,739.9959717,0.007719392888,739.9959717,0.1314749122,
738.0099487,-0.007141758688,738.0099487,-0.005559822079,738.0099487,0.03479926288,738.0099487,0.05053668097,738.0099487,0.04205712304,738.0099487,0.006437269039,738.0099487,0.1318526417,
735.9869995,-0.008229684085,735.9869995,-0.007714722771,735.9869995,0.033547014,735.9869995,0.04964120314,735.9869995,0.04161229357,735.9869995,0.005443282891,735.9869995,0.1302927881,
733.9981689,-0.009542405605,733.9981689,-0.008604325354,733.9981689,0.0326554887,733.9981689,0.04765855148,733.9981689,0.0398392044,733.9981689,0.004169366788,733.9981689,0.1294393539,
732.0079956,-0.0106733432,732.0079956,-0.00924890954,732.0079956,0.03093975782,732.0079956,0.04792192206,732.0079956,0.03885091096,732.0079956,0.002898525214,732.0079956,0.1289738268,
730.0163574,-0.01150679961,730.0163574,-0.01085066516,730.0163574,0.03048292547,730.0163574,0.04702471197,730.0163574,0.03760599345,730.0163574,0.00220207544,730.0163574,0.1275591701,
727.987793,-0.0127682453,727.987793,-0.01168368105,727.987793,0.02887388319,727.987793,0.04570561647,727.987793,0.03616321087,727.987793,0.001413990627,727.987793,0.1274844557,
725.9933472,-0.01306746155,725.9933472,-0.01254613698,725.9933472,0.02902535163,725.9933472,0.04369337857,725.9933472,0.036012128,725.9933472,-0.0003416121763,725.9933472,0.1265488565,
723.9976807,-0.01366005838,723.9976807,-0.01280685235,723.9976807,0.02794871293,723.9976807,0.04456249624,723.9976807,0.03593825549,723.9976807,-0.000522582035,723.9976807,0.1258186102,
722.0005493,-0.01512507442,722.0005493,-0.01392296422,722.0005493,0.02729492821,722.0005493,0.04412813485,722.0005493,0.03509661928,722.0005493,-0.000974961149,722.0005493,0.126147598,
720.0020752,-0.01515562367,720.0020752,-0.01246746443,720.0020752,0.0272150524,720.0020752,0.04591828212,720.0020752,0.03444961831,720.0020752,-0.0009984122589,720.0020752,0.1248690933,
718.0022583,-0.01481231302,718.0022583,-0.01360366493,718.0022583,0.0280649513,718.0022583,0.04595896974,718.0022583,0.03413668647,718.0022583,-0.0005328204134,718.0022583,0.1255454421,
716.0010986,-0.01416611858,716.0010986,-0.01259934809,716.0010986,0.02842493914,716.0010986,0.04649210349,716.0010986,0.03403547034,716.0010986,-0.001059978385,716.0010986,0.126966089,
713.9984741,-0.01350174751,713.9984741,-0.01191600226,713.9984741,0.02850177698,713.9984741,0.04740417749,713.9984741,0.03516083583,713.9984741,-0.000331576186,713.9984741,0.1270830035,
711.9946289,-0.01299079228,711.9946289,-0.01152076479,711.9946289,0.02959450334,711.9946289,0.04848412797,711.9946289,0.0355967693,711.9946289,0.0009352308698,711.9946289,0.1279983371,
709.9893799,-0.01181509811,709.9893799,-0.009937928058,709.9893799,0.0313214995,709.9893799,0.05027965829,709.9893799,0.03758005425,709.9893799,0.001493311487,709.9893799,0.1300226003,
707.9827881,-0.01108136401,707.9827881,-0.009624141268,707.9827881,0.03332421929,707.9827881,0.05208626017,707.9827881,0.03876811638,707.9827881,0.00243637478,707.9827881,0.1309272945,
706.0107422,-0.009516422637,706.0107422,-0.007346032187,706.0107422,0.03379350901,706.0107422,0.05352849513,706.0107422,0.04077475891,706.0107422,0.003406509524,706.0107422,0.1323987842,
704.0015259,-0.008684259839,704.0015259,-0.005722127855,704.0015259,0.03616444767,704.0015259,0.05569241941,704.0015259,0.0415552929,704.0015259,0.00580136152,704.0015259,0.1342014521,
701.9909668,-0.007425078191,701.9909668,-0.004923505709,701.9909668,0.03790118545,701.9909668,0.05757397786,701.9909668,0.0435031727,701.9909668,0.007459051907,701.9909668,0.1352665424,
700.0150146,-0.005679717287,700.0150146,-0.002835385036,700.0150146,0.03949464113,700.0150146,0.058986485,700.0150146,0.04595652595,700.0150146,0.008777138777,700.0150146,0.1374315917,
698.0018311,-0.004540140741,698.0018311,-0.001828767243,698.0018311,0.04106343165,698.0018311,0.06019555777,698.0018311,0.04709747061,698.0018311,0.008217381313,698.0018311,0.1407128274,
695.9874268,-0.00331963296,695.9874268,0.0003938264272,695.9874268,0.04267115146,695.9874268,0.06300001591,695.9874268,0.04772722349,695.9874268,0.01030621212,695.9874268,0.1412591636,
694.0075684,-0.003021077253,694.0075684,0.002021213062,694.0075684,0.0453225784,694.0075684,0.06405743212,694.0075684,0.05092545971,694.0075684,0.01181839779,694.0075684,0.1432536542,
691.9904785,-0.0008975737728,691.9904785,0.002809489612,691.9904785,0.04667497799,691.9904785,0.06547050923,691.9904785,0.05161131173,691.9904785,0.01330097951,691.9904785,0.1455234438,
690.0081177,-0.0005449717282,690.0081177,0.003705601674,690.0081177,0.04777741432,690.0081177,0.06639009714,690.0081177,0.05354497954,690.0081177,0.01355541963,690.0081177,0.1470056772,
687.9884033,1.08981294E-005,687.9884033,0.00462127896,687.9884033,0.04919167235,687.9884033,0.06888473779,687.9884033,0.05436851457,687.9884033,0.01405538991,687.9884033,0.1487064511,
686.00354,0.0006239633658,686.00354,0.006129070185,686.00354,0.05057861656,686.00354,0.06980314106,686.00354,0.05716662854,686.00354,0.01545992959,686.00354,0.1492890418,
684.017395,0.001343434793,684.017395,0.007259877864,684.017395,0.05233361199,684.017395,0.06984682381,684.017395,0.05823436752,684.017395,0.01704934426,684.017395,0.1506567448,
681.9938965,0.003116044449,681.9938965,0.007537456695,681.9938965,0.05391096324,681.9938965,0.07096300274,681.9938965,0.0592524223,681.9938965,0.01735138334,681.9938965,0.1515962631,
680.005249,0.003525939072,680.005249,0.009145379998,680.005249,0.05470808968,680.005249,0.07212147862,680.005249,0.05975826457,680.005249,0.01757011935,680.005249,0.1532390565,
678.0153809,0.004333111458,678.0153809,0.01015946455,678.0153809,0.0545581989,678.0153809,0.07282742858,678.0153809,0.06079327315,678.0153809,0.01868634485,678.0153809,0.1538096964,
675.9880981,0.005335012916,675.9880981,0.01077233348,675.9880981,0.05642684922,675.9880981,0.07311291993,675.9880981,0.06229622662,675.9880981,0.01850105263,675.9880981,0.1543397158,
673.9956665,0.005684556905,673.9956665,0.01072459761,673.9956665,0.0564244315,673.9956665,0.07393976301,673.9956665,0.06375774741,673.9956665,0.01974126697,673.9956665,0.1548115164,
672.0021362,0.005168349016,672.0021362,0.01195016783,672.0021362,0.05787767842,672.0021362,0.07508541644,672.0021362,0.06392358989,672.0021362,0.02089514397,672.0021362,0.1567858905,
670.0072632,0.006047244649,670.0072632,0.01205038559,670.0072632,0.05799440295,670.0072632,0.07492555678,670.0072632,0.06368112564,670.0072632,0.02103833854,670.0072632,0.1572278589,
668.0112305,0.005788192619,668.0112305,0.01275983639,668.0112305,0.05847031623,668.0112305,0.07457263023,668.0112305,0.06522548944,668.0112305,0.01982080936,668.0112305,0.1566993147,
666.0139771,0.005862281658,666.0139771,0.0133801261,666.0139771,0.05901005864,666.0139771,0.07542671263,666.0139771,0.06476204097,666.0139771,0.02088982053,666.0139771,0.1583969593,
664.0154419,0.005319237243,664.0154419,0.01287826616,664.0154419,0.05981247872,664.0154419,0.07606150955,664.0154419,0.06560897827,664.0154419,0.02128030732,664.0154419,0.1586177796,
662.0158081,0.005267197266,662.0158081,0.01356575545,662.0158081,0.06041413173,662.0158081,0.07687177509,662.0158081,0.06710938364,662.0158081,0.02171892859,662.0158081,0.1590037197,
660.0148926,0.00527927652,660.0148926,0.01421316899,660.0148926,0.06103440374,660.0148926,0.0782398209,660.0148926,0.0670722276,660.0148926,0.02075788938,660.0148926,0.1602919698,
658.0128784,0.006399201695,658.0128784,0.01467030495,658.0128784,0.06178374961,658.0128784,0.07862502337,658.0128784,0.06890060008,658.0128784,0.01992500201,658.0128784,0.1619429141,
656.0095825,0.005607272964,656.0095825,0.01515301038,656.0095825,0.06313443929,656.0095825,0.08027938753,656.0095825,0.06972079724,656.0095825,0.02013755403,656.0095825,0.1633097976,
654.0050659,0.006026823539,654.0050659,0.01497744583,654.0050659,0.06292065978,654.0050659,0.08054604381,654.0050659,0.06984414905,654.0050659,0.02111953124,654.0050659,0.1632792503,
651.9993896,0.005819935817,651.9993896,0.01633659191,651.9993896,0.06433174759,651.9993896,0.08252900839,651.9993896,0.07156258076,651.9993896,0.02130689472,651.9993896,0.1637517065,
649.9924927,0.005480034743,649.9924927,0.01661575958,649.9924927,0.06572207808,649.9924927,0.08291590214,649.9924927,0.07247375697,649.9924927,0.0209060628,649.9924927,0.1647062898,
647.9844971,0.005904080346,647.9844971,0.01730176061,647.9844971,0.06656715274,647.9844971,0.08480427414,647.9844971,0.0738767013,647.9844971,0.02130066976,647.9844971,0.1660276055,
646.0118408,0.006068506744,646.0118408,0.01832016185,646.0118408,0.06738454849,646.0118408,0.08546002954,646.0118408,0.07464360446,646.0118408,0.02203033492,646.0118408,0.166486457,
644.0014038,0.00583531009,644.0014038,0.01813308336,644.0014038,0.06800687313,644.0014038,0.08691655844,644.0014038,0.07563275844,644.0014038,0.02159237862,644.0014038,0.1671435833,
641.9898682,0.006605603267,641.9898682,0.01902292483,641.9898682,0.07018037885,641.9898682,0.08793726563,641.9898682,0.07725851238,641.9898682,0.0223592706,641.9898682,0.1686371267,
640.0137939,0.006054253317,640.0137939,0.0194625482,640.0137939,0.06979700178,640.0137939,0.08943534642,640.0137939,0.07796243578,640.0137939,0.0224495437,640.0137939,0.1685455441,
637.9998779,0.006586154457,637.9998779,0.02031898871,637.9998779,0.06935461611,637.9998779,0.09031268954,637.9998779,0.0786960423,637.9998779,0.02265019156,637.9998779,0.1696724892,
635.9848633,0.005875872914,635.9848633,0.02020664699,635.9848633,0.07114242017,635.9848633,0.09150999784,635.9848633,0.07930835336,635.9848633,0.02297236398,635.9848633,0.1705450714,
634.0053711,0.006720631383,634.0053711,0.02161299996,634.0053711,0.07172083855,634.0053711,0.09193523973,634.0053711,0.08029358834,634.0053711,0.02252165042,634.0053711,0.170679301,
631.9880981,0.006573749706,631.9880981,0.0218211282,631.9880981,0.07227960229,631.9880981,0.09302631021,631.9880981,0.08094543219,631.9880981,0.0231350828,631.9880981,0.1712866277,
630.0062866,0.006181922741,630.0062866,0.02188999951,630.0062866,0.07321368158,630.0062866,0.09333133698,630.0062866,0.08224404603,630.0062866,0.02258962393,630.0062866,0.1721049696,
627.9866943,0.006707776338,627.9866943,0.02214889601,627.9866943,0.07416005433,627.9866943,0.09556975961,627.9866943,0.08277430385,627.9866943,0.02362857945,627.9866943,0.1726299226,
626.0027466,0.006665479392,626.0027466,0.02284926735,626.0027466,0.07438579947,626.0027466,0.09654975682,626.0027466,0.08369299024,626.0027466,0.02298183367,626.0027466,0.1744300574,
624.0176392,0.006149837747,624.0176392,0.02305285633,624.0176392,0.0760538578,624.0176392,0.09756084532,624.0176392,0.08529160917,624.0176392,0.02354694158,624.0176392,0.1746021062,
621.9945679,0.006993998773,621.9945679,0.02419108152,621.9945679,0.07652705163,621.9945679,0.0982965678,621.9945679,0.08604727685,621.9945679,0.02310502343,621.9945679,0.1750847995,
620.0073242,0.007320502773,620.0073242,0.024494268,620.0073242,0.07738028467,620.0073242,0.09914124012,620.0073242,0.08656519651,620.0073242,0.02418626472,620.0073242,0.176129654,
617.9821167,0.006870823912,617.9821167,0.02429791354,617.9821167,0.07763092965,617.9821167,0.1003071666,617.9821167,0.08775483072,617.9821167,0.02419877239,617.9821167,0.1764531285,
615.9925537,0.006484509446,615.9925537,0.02529813536,615.9925537,0.07860625535,615.9925537,0.1022133157,615.9925537,0.08830616623,615.9925537,0.02441942319,615.9925537,0.1766794026,
614.0020752,0.006849627942,614.0020752,0.02525157295,614.0020752,0.07945588231,614.0020752,0.1023323014,614.0020752,0.0892663002,614.0020752,0.02442654409,614.0020752,0.1774788052,
612.010437,0.007009230088,612.010437,0.02562417276,612.010437,0.07968641818,612.010437,0.1026630178,612.010437,0.08982504159,612.010437,0.02429312281,612.010437,0.1771737039,
610.0176392,0.007025172468,610.0176392,0.02561038919,610.0176392,0.08010496944,610.0176392,0.1033229381,610.0176392,0.09068333358,610.0176392,0.02400244214,610.0176392,0.1782097071,
607.9869385,0.007112366613,607.9869385,0.0255587697,607.9869385,0.0803802982,607.9869385,0.1040098444,607.9869385,0.09089048952,607.9869385,0.02414146438,607.9869385,0.1791932434,
605.9920044,0.006208049133,605.9920044,0.02565399557,605.9920044,0.08096770197,605.9920044,0.1044865251,605.9920044,0.09161901474,605.9920044,0.02565034293,605.9920044,0.1785671562,
603.9960938,0.006748341955,603.9960938,0.02588602155,603.9960938,0.08026880026,603.9960938,0.1055126563,603.9960938,0.09164254367,603.9960938,0.02408430167,603.9960938,0.1792712212,
601.9991455,0.007223160006,601.9991455,0.02651710436,601.9991455,0.08077744395,601.9991455,0.1047684699,601.9991455,0.09207934141,601.9991455,0.02388326451,601.9991455,0.1795091033,
600.0010376,0.006790988613,600.0010376,0.02627148479,600.0010376,0.08117164671,600.0010376,0.1060846075,600.0010376,0.09188479185,600.0010376,0.02439513616,600.0010376,0.1786390841,
598.0018921,0.006819781382,598.0018921,0.02593913488,598.0018921,0.0815757364,598.0018921,0.1056156382,598.0018921,0.092849195,598.0018921,0.02563576028,598.0018921,0.1783574224,
596.001709,0.006965694018,596.001709,0.02590473182,596.001709,0.08145789802,596.001709,0.1059903949,596.001709,0.09259208292,596.001709,0.02370741591,596.001709,0.1790982187,
594.0005493,0.00696174847,594.0005493,0.0259459503,594.0005493,0.0808999911,594.0005493,0.1060143486,594.0005493,0.09237178415,594.0005493,0.02333618328,594.0005493,0.1794279516,
591.998291,0.006238510367,591.998291,0.02559396997,591.998291,0.08127963543,591.998291,0.1074287072,591.998291,0.09239467978,591.998291,0.02449032478,591.998291,0.1782307029,
589.9949951,0.006377791986,589.9949951,0.02458030172,589.9949951,0.08046023548,589.9949951,0.1058290899,589.9949951,0.09149232507,589.9949951,0.02359157056,589.9949951,0.1787235439,
587.9906616,0.006175095681,587.9906616,0.02571998909,587.9906616,0.08001217991,587.9906616,0.1057079211,587.9906616,0.09151341021,587.9906616,0.02386783808,587.9906616,0.1774123162,
585.9852905,0.005879808683,585.9852905,0.02515764348,585.9852905,0.08036802709,585.9852905,0.1053331792,585.9852905,0.09140454978,585.9852905,0.02417227812,585.9852905,0.1767323166,
584.0160522,0.005622482393,584.0160522,0.02422890626,584.0160522,0.07984685898,584.0160522,0.1053144038,584.0160522,0.09142186493,584.0160522,0.02329802513,584.0160522,0.176687181,
582.008667,0.005378019065,582.008667,0.02365348116,582.008667,0.07886409014,582.008667,0.1044324636,582.008667,0.0907176882,582.008667,0.02344160341,582.008667,0.1762148589,
580.0001831,0.005238271318,580.0001831,0.02289289609,580.0001831,0.07871301472,580.0001831,0.1041152328,580.0001831,0.09027964622,580.0001831,0.0236367248,580.0001831,0.1760346442,
577.9908447,0.004861023277,577.9908447,0.0230551213,577.9908447,0.07826415449,577.9908447,0.1036633402,577.9908447,0.08924185485,577.9908447,0.02396611311,577.9908447,0.17507267,
576.0175781,0.004821497016,576.0175781,0.02238824219,576.0175781,0.07705677301,576.0175781,0.1026666239,576.0175781,0.08837644011,576.0175781,0.02357998304,576.0175781,0.1741039902,
574.0061646,0.004426879808,574.0061646,0.02172739245,574.0061646,0.07651516795,574.0061646,0.1023632288,574.0061646,0.08783423156,574.0061646,0.02361239865,574.0061646,0.1733289808,
571.9937134,0.003952364437,571.9937134,0.02136962116,571.9937134,0.07561583817,571.9937134,0.1006520092,571.9937134,0.08647478372,571.9937134,0.0224233754,571.9937134,0.1730574071,
570.0175171,0.003756306134,570.0175171,0.02020350285,570.0175171,0.07491765171,570.0175171,0.09890261292,570.0175171,0.08585692197,570.0175171,0.02288667485,570.0175171,0.1711990088,
568.0030518,0.003303284524,568.0030518,0.01961355656,568.0030518,0.07373709977,568.0030518,0.09818517417,568.0030518,0.08486182988,568.0030518,0.02327522077,568.0030518,0.1704469025,
565.9876099,0.003195207333,565.9876099,0.01901727356,565.9876099,0.07243195176,565.9876099,0.0962177217,565.9876099,0.08395204693,565.9876099,0.02233735844,565.9876099,0.1703845859,
564.0085449,0.002756290603,564.0085449,0.0182892736,564.0085449,0.07161284983,564.0085449,0.09563624859,564.0085449,0.08284309506,564.0085449,0.02271101065,564.0085449,0.1683639735,
561.9910889,0.002143617952,561.9910889,0.01743622869,561.9910889,0.07049838454,561.9910889,0.09415759146,561.9910889,0.0807890147,561.9910889,0.02272156626,561.9910889,0.1677806526,
560.0101318,0.00147660973,560.0101318,0.01668297686,560.0101318,0.06924663484,560.0101318,0.0929082185,560.0101318,0.07978772372,560.0101318,0.02284446359,560.0101318,0.1663780063,
557.9907837,0.0008568419144,557.9907837,0.01575267874,557.9907837,0.0681559369,557.9907837,0.09119047225,557.9907837,0.07842379063,557.9907837,0.02347261459,557.9907837,0.1653799266,
556.0078735,0.0003357413225,556.0078735,0.01486894209,556.0078735,0.06709246337,556.0078735,0.09063571692,556.0078735,0.07686321437,556.0078735,0.02318231761,556.0078735,0.1635296196,
553.9865723,-0.0005476605147,553.9865723,0.01468886063,553.9865723,0.06578601897,553.9865723,0.08891399205,553.9865723,0.07609947771,553.9865723,0.02381642722,553.9865723,0.1622652113,
552.00177,-0.0007991924067,552.00177,0.01400328148,552.00177,0.06471472234,552.00177,0.08711613715,552.00177,0.0742226094,552.00177,0.02331913821,552.00177,0.161951825,
550.0160522,-0.001293509151,550.0160522,0.01366172545,550.0160522,0.06360403448,550.0160522,0.0856583342,550.0160522,0.07305190712,550.0160522,0.02484319359,550.0160522,0.1605820954,
547.9918213,-0.002420620527,547.9918213,0.01278564148,547.9918213,0.0623755604,547.9918213,0.0846363306,547.9918213,0.0715586096,547.9918213,0.02604890056,547.9918213,0.1591324508,
546.0042725,-0.00227324781,546.0042725,0.01259301696,546.0042725,0.06183538213,546.0042725,0.08316167444,546.0042725,0.07031862438,546.0042725,0.02612716146,546.0042725,0.1588730365,
544.0157471,-0.002734303242,544.0157471,0.01292330585,544.0157471,0.06097565591,544.0157471,0.0824303776,544.0157471,0.06927359849,544.0157471,0.02880912274,544.0157471,0.1576527208,
541.9886475,-0.002664535539,541.9886475,0.01314910781,541.9886475,0.06042481214,541.9886475,0.08099989593,541.9886475,0.06854508072,541.9886475,0.03007054143,541.9886475,0.1578599066,
539.998291,-0.00218110159,539.998291,0.01419995632,539.998291,0.0598455742,539.998291,0.0798619464,539.998291,0.06747364998,539.998291,0.02998341247,539.998291,0.1582109034,
538.006958,-0.002748656785,538.006958,0.01466869842,538.006958,0.06035624072,538.006958,0.07986842096,538.006958,0.06734585762,538.006958,0.03570841253,538.006958,0.1566589624,
536.0147705,-0.002269436838,536.0147705,0.01628402248,536.0147705,0.06027180329,536.0147705,0.0792080313,536.0147705,0.06632163376,536.0147705,0.03619905189,536.0147705,0.1584114134,
533.9840698,-0.002159208292,533.9840698,0.0173049923,533.9840698,0.06070708483,533.9840698,0.07872570306,533.9840698,0.06666338444,533.9840698,0.04105941951,533.9840698,0.1577797532,
531.9899902,-0.001092462335,531.9899902,0.01946165413,531.9899902,0.06135895848,531.9899902,0.07874956727,531.9899902,0.06653887779,531.9899902,0.04372172058,531.9899902,0.1595597714,
529.9950562,-0.001171054086,529.9950562,0.02149262652,529.9950562,0.06291712821,529.9950562,0.07975394279,529.9950562,0.06758868694,529.9950562,0.05184786022,529.9950562,0.1591532826,
527.9992065,0.0006333735655,527.9992065,0.0243173521,527.9992065,0.06297463924,527.9992065,0.07883650064,527.9992065,0.06688790023,527.9992065,0.05092601106,527.9992065,0.1630175412,
526.0024414,0.001191611285,526.0024414,0.0265845228,526.0024414,0.06451775879,526.0024414,0.07969133556,526.0024414,0.06781255454,526.0024414,0.05758426338,526.0024414,0.1639938504,
524.0048828,0.002117266413,524.0048828,0.03016789816,524.0048828,0.06589762866,524.0048828,0.08032567054,524.0048828,0.0683651939,524.0048828,0.06369952857,524.0048828,0.1655943245,
522.0063477,0.002510753227,522.0063477,0.03292929381,522.0063477,0.06769637018,522.0063477,0.0811784789,522.0063477,0.06964497268,522.0063477,0.07076662779,522.0063477,0.1666259468,
520.006958,0.003478027647,520.006958,0.03640331328,520.006958,0.06966614723,520.006958,0.08234447986,520.006958,0.07080946863,520.006958,0.07810144871,520.006958,0.1680054069,
518.0067139,0.004805897363,518.0067139,0.04025745392,518.0067139,0.07083743811,518.0067139,0.08276152611,518.0067139,0.07121280581,518.0067139,0.08339669555,518.0067139,0.1711646765,
516.0055542,0.005815423559,516.0055542,0.0443986021,516.0055542,0.07320544124,516.0055542,0.08387453854,516.0055542,0.07215109468,516.0055542,0.09156470746,516.0055542,0.1735815406,
514.00354,0.00601997273,514.00354,0.04864314198,514.00354,0.07518814504,514.00354,0.08512495458,514.00354,0.07383631915,514.00354,0.100109525,514.00354,0.1749564409,
512.0006104,0.007271907758,512.0006104,0.0525662899,512.0006104,0.07733682543,512.0006104,0.08590427786,512.0006104,0.07448759675,512.0006104,0.106690675,512.0006104,0.1779475808,
509.9968567,0.007709142752,509.9968567,0.05744673312,509.9968567,0.07950452715,509.9968567,0.08721896261,509.9968567,0.07634329796,509.9968567,0.1156355143,509.9968567,0.1801651567,
507.9922485,0.008098342456,507.9922485,0.06155461445,507.9922485,0.08180174232,507.9922485,0.08793171495,507.9922485,0.0769450739,507.9922485,0.1243222579,507.9922485,0.1835919321,
505.9868164,0.008499822579,505.9868164,0.06645531207,505.9868164,0.08405397087,505.9868164,0.08936258405,505.9868164,0.07853363454,505.9868164,0.1338478029,505.9868164,0.1856439114,
504.0183105,0.009278800339,504.0183105,0.07136934996,504.0183105,0.0863795206,504.0183105,0.09066846967,504.0183105,0.07976952195,504.0183105,0.1420185268,504.0183105,0.1883818507,
502.0111389,0.009392291307,502.0111389,0.07684118301,502.0111389,0.08908241987,502.0111389,0.09164842218,502.0111389,0.08138009161,502.0111389,0.1536051333,502.0111389,0.1911709011,
500.0031433,0.009440013207,500.0031433,0.08204866946,500.0031433,0.09185025096,500.0031433,0.09291225672,500.0031433,0.08310998231,500.0031433,0.1643142998,500.0031433,0.1936319619,
497.9943542,0.009990806691,497.9943542,0.08763518184,497.9943542,0.0944031477,497.9943542,0.09439307451,497.9943542,0.08435577154,497.9943542,0.1743246764,497.9943542,0.1966139674,
495.9845581,0.01017618552,495.9845581,0.09306328744,495.9845581,0.0963011086,495.9845581,0.09513305128,495.9845581,0.08518242836,495.9845581,0.183263883,495.9845581,0.2001588345,
494.0119934,0.009689685889,494.0119934,0.09812186658,494.0119934,0.09968411922,494.0119934,0.09654778987,494.0119934,0.08703107387,494.0119934,0.1965224743,494.0119934,0.2018544823,
492.0006104,0.009809611365,492.0006104,0.1037162915,492.0006104,0.1016296223,492.0006104,0.09723755717,492.0006104,0.08737936616,492.0006104,0.2041540742,492.0006104,0.2057989836,
489.9884033,0.009864581749,489.9884033,0.1105526388,489.9884033,0.1054301187,489.9884033,0.09928284585,489.9884033,0.08989145607,489.9884033,0.2189785093,489.9884033,0.2088984698,
488.0134277,0.01002137549,488.0134277,0.116372548,488.0134277,0.1075262129,488.0134277,0.100075461,488.0134277,0.09089888632,488.0134277,0.2271871716,488.0134277,0.2120314091,
485.9995117,0.009928748943,485.9995117,0.1228487343,485.9995117,0.1112489477,485.9995117,0.1019941121,485.9995117,0.0929422006,485.9995117,0.2416051477,485.9995117,0.2151954919,
483.9848633,0.01020379923,483.9848633,0.1289137006,483.9848633,0.113321133,483.9848633,0.1027988791,483.9848633,0.09380639344,483.9848633,0.2487291545,483.9848633,0.2207524627,
482.0075073,0.01028399915,482.0075073,0.1360692382,482.0075073,0.11683736,482.0075073,0.1048884168,482.0075073,0.09635355324,482.0075073,0.262321949,482.0075073,0.2238222659,
479.9911804,0.01040252484,479.9911804,0.1423830837,479.9911804,0.1209440455,479.9911804,0.1076116413,479.9911804,0.09935032576,479.9911804,0.27636832,479.9911804,0.2268763483,
478.0121765,0.01063818764,478.0121765,0.1496718228,478.0121765,0.1249309704,478.0121765,0.1103095636,478.0121765,0.1018442288,478.0121765,0.2890721262,478.0121765,0.2313102931,
475.9942627,0.01163742226,475.9942627,0.1570662707,475.9942627,0.1292213053,475.9942627,0.1127275974,475.9942627,0.1047076881,475.9942627,0.3018220961,475.9942627,0.2361017317,
474.0137024,0.01226700004,474.0137024,0.1647093445,474.0137024,0.1335937381,474.0137024,0.1159571484,474.0137024,0.1077981964,474.0137024,0.3155572414,474.0137024,0.2404721528,
471.9942017,0.01327346265,471.9942017,0.1722854972,471.9942017,0.1381526142,471.9942017,0.1185202599,471.9942017,0.1112722531,471.9942017,0.3268030584,471.9942017,0.2450011671,
470.0120544,0.01437962148,470.0120544,0.1785526574,470.0120544,0.1421906501,470.0120544,0.1216661707,470.0120544,0.114445284,470.0120544,0.3381797373,470.0120544,0.249623239,
467.9910583,0.01510082372,467.9910583,0.1860564649,467.9910583,0.1463600248,467.9910583,0.1246369779,467.9910583,0.1177031621,467.9910583,0.3514065444,467.9910583,0.2535461485,
466.0073853,0.01607060619,466.0073853,0.1924629807,466.0073853,0.1506484598,466.0073853,0.1277339011,466.0073853,0.1206459701,466.0073853,0.3602174222,466.0073853,0.257912904,
463.9847412,0.01733670011,463.9847412,0.1989826113,463.9847412,0.1544209421,463.9847412,0.1308400631,463.9847412,0.1238586009,463.9847412,0.3722742796,463.9847412,0.2624367774,
461.9996033,0.01801650226,461.9996033,0.2047615945,461.9996033,0.1583591551,461.9996033,0.1341230124,461.9996033,0.1267740279,461.9996033,0.3831748366,461.9996033,0.2658469975,
460.0135803,0.01909633167,460.0135803,0.2095236182,460.0135803,0.1611085981,460.0135803,0.1356933415,460.0135803,0.1289076358,460.0135803,0.3889738321,460.0135803,0.2705821693,
457.9886475,0.0198144149,457.9886475,0.2151553482,457.9886475,0.1645566821,457.9886475,0.1386277378,457.9886475,0.1318775117,457.9886475,0.3967683911,457.9886475,0.2744493186,
456.0011597,0.02039117552,456.0011597,0.2195635885,456.0011597,0.1679025292,456.0011597,0.1412796229,456.0011597,0.1348330081,456.0011597,0.4050447345,456.0011597,0.2772223055,
454.01297,0.02097900026,454.01297,0.2229965627,454.01297,0.1704924703,454.01297,0.1437874883,454.01297,0.136906296,454.01297,0.4116168618,454.01297,0.2794374228,
451.9857483,0.02163076587,451.9857483,0.2261893898,451.9857483,0.1726493388,451.9857483,0.1458230615,451.9857483,0.1390730292,451.9857483,0.4155470133,451.9857483,0.2826520801,
449.9960632,0.02197609097,449.9960632,0.228584066,449.9960632,0.1748815477,449.9960632,0.1478349566,449.9960632,0.1411815584,449.9960632,0.4192082584,449.9960632,0.2844990492,
448.0055847,0.0222638119,448.0055847,0.2302097976,448.0055847,0.1768707782,448.0055847,0.1494921297,448.0055847,0.1430661678,448.0055847,0.4216471314,448.0055847,0.2863853276,
446.0144348,0.02290561236,446.0144348,0.2317147404,446.0144348,0.1781678796,446.0144348,0.1510313749,446.0144348,0.1442960352,446.0144348,0.4219762087,446.0144348,0.2886132002,
443.984314,0.023270851,443.984314,0.2320217043,443.984314,0.1792994291,443.984314,0.1527862549,443.984314,0.1459325105,443.984314,0.4230740368,443.984314,0.2894466221,
441.9916382,0.02323761396,441.9916382,0.2324061245,441.9916382,0.1804673821,441.9916382,0.1544551402,441.9916382,0.147258386,441.9916382,0.4226664305,441.9916382,0.2901571691,
439.9982605,0.02367100306,439.9982605,0.2319293767,439.9982605,0.1807137728,439.9982605,0.1552023888,439.9982605,0.1482086331,439.9982605,0.4191036522,439.9982605,0.2915453911,
438.0041504,0.02419855259,438.0041504,0.2308651358,438.0041504,0.1809153706,438.0041504,0.156597212,438.0041504,0.149234578,438.0041504,0.416831702,438.0041504,0.2918739021,
436.0094299,0.02397653461,436.0094299,0.2291563004,436.0094299,0.1806637347,436.0094299,0.1574485302,436.0094299,0.1500310898,436.0094299,0.4124922752,436.0094299,0.2911458015,
434.013916,0.02422671579,434.013916,0.2264915109,434.013916,0.1801881641,434.013916,0.1579555422,434.013916,0.1500749439,434.013916,0.4067853689,434.013916,0.2905080318,
432.0177917,0.02432728931,432.0177917,0.2235047519,432.0177917,0.1791456044,432.0177917,0.1584558636,432.0177917,0.1504148245,432.0177917,0.4008261561,432.0177917,0.2900518477,
429.9824829,0.02437821403,429.9824829,0.2195958197,429.9824829,0.178096965,429.9824829,0.1583938599,429.9824829,0.1501167417,429.9824829,0.3935000598,429.9824829,0.2885227501,
427.9848328,0.02416562848,427.9848328,0.2157580853,427.9848328,0.1767579019,427.9848328,0.1587337852,427.9848328,0.1502473354,427.9848328,0.3861536086,427.9848328,0.2867365777,
425.9865723,0.02455460839,425.9865723,0.2118671536,425.9865723,0.1750615239,425.9865723,0.1585742533,425.9865723,0.1497721225,425.9865723,0.3778833747,425.9865723,0.285295397,
423.9875183,0.02472575754,423.9875183,0.2075815499,423.9875183,0.1732341945,423.9875183,0.158095926,423.9875183,0.1487255841,423.9875183,0.3683050573,423.9875183,0.2840292156,
421.987854,0.02463651635,421.987854,0.203306511,421.987854,0.1715768576,421.987854,0.1580210477,421.987854,0.1485103965,421.987854,0.361507833,421.987854,0.2821424305,
419.9874573,0.0246709846,419.9874573,0.1990213394,419.9874573,0.1694863737,419.9874573,0.157172069,419.9874573,0.1471842676,419.9874573,0.3515511751,419.9874573,0.2809940875,
417.9863892,0.02492806315,417.9863892,0.193799451,417.9863892,0.1673380435,417.9863892,0.1565220058,417.9863892,0.1458836198,417.9863892,0.3442565203,417.9863892,0.2790313065,
415.9846497,0.02505427413,415.9846497,0.1894120574,415.9846497,0.165331021,415.9846497,0.1555825621,415.9846497,0.1452050209,415.9846497,0.3367628455,415.9846497,0.2768241763,
413.9822693,0.02443996258,413.9822693,0.1864573658,413.9822693,0.1631274968,413.9822693,0.1548531204,413.9822693,0.1439865828,413.9822693,0.3306210935,413.9822693,0.2753564715,
412.0176697,0.02428893559,412.0176697,0.1833522022,412.0176697,0.1617717594,412.0176697,0.1541785002,412.0176697,0.1432266235,412.0176697,0.3273245692,412.0176697,0.2733164132,
410.0139771,0.0244187396,410.0139771,0.181888327,410.0139771,0.1603261977,410.0139771,0.1531566232,410.0139771,0.1418561786,410.0139771,0.3239687681,410.0139771,0.2727487385,
408.0095215,0.02424828522,408.0095215,0.1814609915,408.0095215,0.1597983986,408.0095215,0.1527928859,408.0095215,0.1412734687,408.0095215,0.3246820569,408.0095215,0.2716622055,
406.004425,0.0238665808,406.004425,0.1818487495,406.004425,0.1594200432,406.004425,0.1522766799,406.004425,0.1405545175,406.004425,0.32893911,406.004425,0.2717779577,
403.9987183,0.02365353517,403.9987183,0.1863378137,403.9987183,0.1602490693,403.9987183,0.1514487565,403.9987183,0.1401870549,403.9987183,0.3370893896,403.9987183,0.2741260827,
401.9923096,0.02367499284,401.9923096,0.1937788576,401.9923096,0.1626340747,401.9923096,0.1521781832,401.9923096,0.140965268,401.9923096,0.3529418111,401.9923096,0.2762246132,
399.98526,0.02357847989,399.98526,0.204709217,399.98526,0.1663887501,399.98526,0.1531794965,399.98526,0.1421908289,399.98526,0.3758318424,399.98526,0.2801214159,
398.0162048,0.02353267744,398.0162048,0.2204532176,398.0162048,0.1732155681,398.0162048,0.1547962576,398.0162048,0.1448523849,398.0162048,0.4057236016,398.0162048,0.2861801088,
396.0078125,0.02322655544,396.0078125,0.2393316031,396.0078125,0.1816303879,396.0078125,0.1577053815,396.0078125,0.1484845877,396.0078125,0.4527600706,396.0078125,0.2941032052,
393.9988403,0.02379788645,393.9988403,0.2605926394,393.9988403,0.1899602115,393.9988403,0.1600479633,393.9988403,0.1515384167,393.9988403,0.4915049374,393.9988403,0.3047919273,
391.9892273,0.02443352714,391.9892273,0.2848141789,391.9892273,0.198617056,391.9892273,0.1636740863,391.9892273,0.1565034091,391.9892273,0.5348818302,391.9892273,0.316472441,
390.0176392,0.02451097593,390.0176392,0.3108356893,390.0176392,0.2100974321,390.0176392,0.1679381877,390.0176392,0.1616656035,390.0176392,0.5877897739,390.0176392,0.3259808421,
388.0067749,0.02519582771,388.0067749,0.3406753242,388.0067749,0.2241496444,388.0067749,0.1731543094,388.0067749,0.1680217981,388.0067749,0.64842695,388.0067749,0.3385910988,
385.9952087,0.02618184313,385.9952087,0.3770748377,385.9952087,0.2384057492,385.9952087,0.1793328375,385.9952087,0.1764850318,385.9952087,0.7269381881,385.9952087,0.3570505679,
383.9830627,0.02698498592,383.9830627,0.4183460176,383.9830627,0.2562351227,383.9830627,0.1863124371,383.9830627,0.1852877289,383.9830627,0.7987940907,383.9830627,0.3730645776,
382.0090332,0.02857295983,382.0090332,0.4631127417,382.0090332,0.2764185965,382.0090332,0.1950929463,382.0090332,0.1955337077,382.0090332,0.8842728138,382.0090332,0.3927134871,
379.995636,0.03006127663,379.995636,0.5063840747,379.995636,0.297149688,379.995636,0.2021847963,379.995636,0.2057237327,379.995636,0.9748007059,379.995636,0.4148022234,
377.9816589,0.03110390343,377.9816589,0.5460223556,377.9816589,0.3131454885,377.9816589,0.209416911,377.9816589,0.2146794051,377.9816589,1.042438388,377.9816589,0.4339267612,
376.0057983,0.03315168992,376.0057983,0.5891783237,376.0057983,0.3339169025,376.0057983,0.2174359709,376.0057983,0.2248003781,376.0057983,1.134080887,376.0057983,0.451782614,
373.9905701,0.03428246826,373.9905701,0.6361427903,373.9905701,0.3547610044,373.9905701,0.2275032848,373.9905701,0.236258015,373.9905701,1.211770296,373.9905701,0.4728020132,
372.0135193,0.03563458845,372.0135193,0.692312777,372.0135193,0.3780637681,372.0135193,0.2371191382,372.0135193,0.2521440983,372.0135193,1.319982409,372.0135193,0.4971963167,
369.9970703,0.03723755851,369.9970703,0.7476490736,369.9970703,0.3995690346,369.9970703,0.2467146814,369.9970703,0.2636839449,369.9970703,1.416742086,369.9970703,0.521663785,
368.0188904,0.03813298047,368.0188904,0.7867556214,368.0188904,0.4213435948,368.0188904,0.2553650737,368.0188904,0.2748108506,368.0188904,1.509256959,368.0188904,0.542770505,
366.0012817,0.03980609402,366.0012817,0.8363090158,366.0012817,0.4393658638,366.0012817,0.2641614079,366.0012817,0.285359472,366.0012817,1.591114759,366.0012817,0.5630323887,
363.9830322,0.04042461887,363.9830322,0.872415185,363.9830322,0.460382998,363.9830322,0.2731153369,363.9830322,0.2968043387,363.9830322,1.661903739,363.9830322,0.5792371035,
362.0031128,0.0416980572,362.0031128,0.914550364,362.0031128,0.4765720069,362.0031128,0.2789620161,362.0031128,0.3059814572,362.0031128,1.751993299,362.0031128,0.6026213765,
359.9837341,0.04274263978,359.9837341,0.9613912702,359.9837341,0.4986440837,359.9837341,0.2872715294,359.9837341,0.3187360466,359.9837341,1.83281517,359.9837341,0.6199661493,
358.002594,0.04303470999,358.002594,0.9912053347,358.002594,0.5110468864,358.002594,0.2941744924,358.002594,0.3257983029,358.002594,1.902637482,358.002594,0.6332526207,
355.9820862,0.04441523552,355.9820862,1.022810817,355.9820862,0.5229779482,355.9820862,0.2999966741,355.9820862,0.3337878287,355.9820862,1.950723052,355.9820862,0.6471408606,
353.9998474,0.04502115399,353.9998474,1.041955471,353.9998474,0.532315135,353.9998474,0.3036386669,353.9998474,0.3388249278,353.9998474,2.00088191,353.9998474,0.6584792733,
352.0170593,0.04655241221,352.0170593,1.062655926,352.0170593,0.5418323874,352.0170593,0.3093881011,352.0170593,0.3468276858,352.0170593,2.02468729,352.0170593,0.6694967747,
349.994812,0.04713691026,349.994812,1.078070521,349.994812,0.5478008986,349.994812,0.31237939,349.994812,0.3512574136,349.994812,2.067818403,349.994812,0.6771550775,
348.0109253,0.04800266027,348.0109253,1.080752492,348.0109253,0.550037086,348.0109253,0.3139715791,348.0109253,0.3533831239,348.0109253,2.063524246,348.0109253,0.6801862121,
345.9875793,0.04944521189,345.9875793,1.074280739,345.9875793,0.5476466417,345.9875793,0.3138045669,345.9875793,0.3535418212,345.9875793,2.054800987,345.9875793,0.6794474721,
344.0025635,0.0505309552,344.0025635,1.062341332,344.0025635,0.5424960852,344.0025635,0.3122316897,344.0025635,0.3521073759,344.0025635,2.050263166,344.0025635,0.6775861382,
342.0170288,0.0516894199,342.0170288,1.043269396,342.0170288,0.536020875,342.0170288,0.3104615808,342.0170288,0.3506988585,342.0170288,2.012826204,342.0170288,0.6725835204,
339.9920349,0.05278608203,339.9920349,1.022904873,339.9920349,0.5250700712,339.9920349,0.3074513972,339.9920349,0.3473891616,339.9920349,1.981967449,339.9920349,0.6628482342,
338.0054016,0.05429458618,338.0054016,0.9873535037,338.0054016,0.5112571716,338.0054016,0.3035739064,338.0054016,0.3424928188,338.0054016,1.913370609,338.0054016,0.6539621949,
336.01828,0.05567037687,336.01828,0.9529585242,336.01828,0.4935733378,336.01828,0.2979669273,336.01828,0.33539626,336.01828,1.847426414,336.01828,0.6408706903,
333.9916382,0.0572139062,333.9916382,0.9196445346,333.9916382,0.4774230123,333.9916382,0.2934376001,333.9916382,0.3294493854,333.9916382,1.774567246,333.9916382,0.6268396974,
332.0033875,0.05910937861,332.0033875,0.8755241632,332.0033875,0.4600691795,332.0033875,0.287866801,332.0033875,0.3231461346,332.0033875,1.707251787,332.0033875,0.6134864092,
330.0147095,0.06116041169,330.0147095,0.837020278,330.0147095,0.4415539503,330.0147095,0.2811613381,330.0147095,0.3166818321,330.0147095,1.615040064,330.0147095,0.5973988175,
327.9864197,0.06288840622,327.9864197,0.7971420884,327.9864197,0.4258239567,327.9864197,0.2759869099,327.9864197,0.3104446232,327.9864197,1.540779591,327.9864197,0.5817757845,
325.9966736,0.06536485255,325.9966736,0.7583497763,325.9966736,0.4090797007,325.9966736,0.2711434662,325.9966736,0.3047567606,325.9966736,1.47565949,325.9966736,0.5670416355,
324.0064087,0.06786711514,324.0064087,0.722084105,324.0064087,0.3945978582,324.0064087,0.2669029832,324.0064087,0.299567312,324.0064087,1.410216093,324.0064087,0.5590686798,
322.015625,0.07090954483,322.015625,0.6934001446,322.015625,0.3800731301,322.015625,0.2637261748,322.015625,0.2955883741,322.015625,1.352296472,322.015625,0.5478540659,
319.9852905,0.07344509661,319.9852905,0.6623777151,319.9852905,0.3690060675,319.9852905,0.2616433799,319.9852905,0.2924763262,319.9852905,1.296361685,319.9852905,0.537645638,
317.9934998,0.07693697512,317.9934998,0.6454390287,317.9934998,0.362796694,317.9934998,0.2607580423,317.9934998,0.2914948463,317.9934998,1.258311868,317.9934998,0.534034431,
316.0012207,0.07931391895,316.0012207,0.6325859427,316.0012207,0.3581187129,316.0012207,0.2618217766,316.0012207,0.2924068272,316.0012207,1.242882848,316.0012207,0.5315439701,
314.0084534,0.08370432258,314.0084534,0.6324730515,314.0084534,0.3581314683,314.0084534,0.2640271783,314.0084534,0.2948953807,314.0084534,1.238469124,314.0084534,0.5362766981,
312.0151367,0.0864078775,312.0151367,0.6406165957,312.0151367,0.3631108999,312.0151367,0.2676652968,312.0151367,0.3002440333,312.0151367,1.253169656,312.0151367,0.5436865091,
309.9822693,0.09067245573,309.9822693,0.6636884212,309.9822693,0.3727837801,309.9822693,0.2749297917,309.9822693,0.3076533377,309.9822693,1.30442214,309.9822693,0.5589232445,
307.9880371,0.09348414838,307.9880371,0.7000409365,307.9880371,0.3900667131,307.9880371,0.2845825255,307.9880371,0.316616267,307.9880371,1.360098362,307.9880371,0.5753929019,
305.9932861,0.0971416533,305.9932861,0.7492469549,305.9932861,0.4118613303,305.9932861,0.2952849865,305.9932861,0.3309506774,305.9932861,1.462705731,305.9932861,0.6020796895,
303.9980774,0.09990290552,303.9980774,0.8136229515,303.9980774,0.4422207475,303.9980774,0.3092589974,303.9980774,0.347963661,303.9980774,1.584717631,303.9980774,0.6386985183,
302.0023499,0.1036108658,302.0023499,0.9053259492,302.0023499,0.4797010422,302.0023499,0.32677719,302.0023499,0.3705439866,302.0023499,1.741511345,302.0023499,0.6817727089,
300.0062256,0.1080168337,300.0062256,1.002346516,300.0062256,0.5284897089,300.0062256,0.3507560492,300.0062256,0.3971987665,300.0062256,1.96743381,300.0062256,0.7352100611,
298.009552,0.1108473092,298.009552,1.117125392,298.009552,0.5835149288,298.009552,0.3711705506,298.009552,0.4215639234,298.009552,2.182570219,298.009552,0.7822852731,
296.0124207,0.1158663183,296.0124207,1.269470334,296.0124207,0.6383683681,296.0124207,0.3974095881,296.0124207,0.4544939399,296.0124207,2.413082123,296.0124207,0.8488214016,
294.0148926,0.1200740188,294.0148926,1.404744148,294.0148926,0.7044170499,294.0148926,0.4246032536,294.0148926,0.4889217317,294.0148926,2.68203783,294.0148926,0.9074904919,
292.0168152,0.1237148494,292.0168152,1.536869407,292.0168152,0.7668182254,292.0168152,0.4543606341,292.0168152,0.5190753341,292.0168152,2.939578056,292.0168152,0.9741687775,
290.0183411,0.1284350157,290.0183411,1.670960784,290.0183411,0.8370343447,290.0183411,0.4841072857,290.0183411,0.5523114204,290.0183411,3.161691189,290.0183411,1.049006939,
288.0193787,0.1327122152,288.0193787,1.82730937,288.0193787,0.8989138007,288.0193787,0.5155094266,288.0193787,0.5899233818,288.0193787,3.400771856,288.0193787,1.107269287,
285.9808044,0.1372300237,285.9808044,1.942724943,285.9808044,0.9556903839,285.9808044,0.5419147015,285.9808044,0.6209019423,285.9808044,3.445040703,285.9808044,1.173647881,
283.9809875,0.1414232254,283.9809875,2.059592009,283.9809875,1.003763795,283.9809875,0.5614517927,283.9809875,0.6443360448,283.9809875,3.752600193,283.9809875,1.220887542,
281.9806519,0.145410195,281.9806519,2.147334337,281.9806519,1.041425824,281.9806519,0.5803415775,281.9806519,0.6657462716,281.9806519,3.7014606,281.9806519,1.26570034,
280.019165,0.1494719684,280.019165,2.216605663,280.019165,1.072751403,280.019165,0.5962347388,280.019165,0.6821938753,280.019165,3.934812069,280.019165,1.304414034,
278.0180054,0.1527111828,278.0180054,2.266113997,278.0180054,1.097162724,278.0180054,0.6094577909,278.0180054,0.6939859986,278.0180054,3.960649252,278.0180054,1.327430844,
276.0163879,0.1562469751,276.0163879,2.289259911,276.0163879,1.111459017,276.0163879,0.6177371144,276.0163879,0.7039685845,276.0163879,3.652418137,276.0163879,1.344943285,
274.0143738,0.1589834392,274.0143738,2.297430277,274.0143738,1.120296836,274.0143738,0.6231815219,274.0143738,0.7093887925,274.0143738,3.984400988,274.0143738,1.353964925,
272.0119019,0.1611026675,272.0119019,2.30305481,272.0119019,1.120592117,272.0119019,0.624098599,272.0119019,0.7105698586,272.0119019,3.830279112,272.0119019,1.355683446,
270.0090332,0.1644113958,270.0090332,2.291070461,270.0090332,1.117518544,270.0090332,0.6249768734,270.0090332,0.7102268934,270.0090332,10,270.0090332,1.356674075,
268.0057373,0.1658614278,268.0057373,2.272804737,268.0057373,1.111140847,268.0057373,0.6227796078,268.0057373,0.7080570459,268.0057373,3.900362968,268.0057373,1.352748156,
266.0020142,0.1672889888,266.0020142,2.260025501,266.0020142,1.102358699,266.0020142,0.6204714775,266.0020142,0.7043707967,266.0020142,3.728110313,266.0020142,1.348150134,
263.9978638,0.167984724,263.9978638,2.232240915,263.9978638,1.097720146,263.9978638,0.6190243959,263.9978638,0.7044451237,263.9978638,10,263.9978638,1.344798565,
261.9933167,0.1691761762,261.9933167,2.214164257,261.9933167,1.095454097,261.9933167,0.6195881367,261.9933167,0.706887424,261.9933167,3.715825796,261.9933167,1.345535517,
259.9883118,0.1726278365,259.9883118,2.220205545,259.9883118,1.094196558,259.9883118,0.6202229261,259.9883118,0.7074368,259.9883118,3.896528244,259.9883118,1.352551579,
257.9829712,0.1728400737,257.9829712,2.217929602,257.9829712,1.097700477,257.9829712,0.6231654286,257.9829712,0.7132780552,257.9829712,3.86587286,257.9829712,1.359421492,
256.01651,0.1738259494,256.01651,2.211029768,256.01651,1.105439067,256.01651,0.6286064386,256.01651,0.723572731,256.01651,4.081763268,256.01651,1.370579243,
254.0103302,0.1737572253,254.0103302,2.233255148,254.0103302,1.116234899,254.0103302,0.6382991672,254.0103302,0.735709548,254.0103302,3.645502329,254.0103302,1.387417316,
252.0037689,0.1754771769,252.0037689,2.256121159,252.0037689,1.132888436,252.0037689,0.6502919793,252.0037689,0.7474732399,252.0037689,3.694350004,252.0037689,1.412297606,
249.9968109,0.1746145636,249.9968109,2.275810719,249.9968109,1.157040238,249.9968109,0.6717911363,249.9968109,0.7756735086,249.9968109,4.3004179,249.9968109,1.442831039,
247.9894714,0.1759460866,247.9894714,2.318494558,247.9894714,1.186562896,247.9894714,0.6931257248,247.9894714,0.8016827106,247.9894714,4.277718067,247.9894714,1.481147885,
245.9817047,0.1790781617,245.9817047,2.367494822,245.9817047,1.231107831,245.9817047,0.7254402041,245.9817047,0.8345192671,245.9817047,4.304121494,245.9817047,1.533963442,
244.01297,0.1796576828,244.01297,2.442561865,244.01297,1.284794807,244.01297,0.7761009336,244.01297,0.8946346045,244.01297,3.972992182,244.01297,1.609921813,
242.0045013,0.1849916875,242.0045013,2.522837639,242.0045013,1.35548389,242.0045013,0.8296006918,242.0045013,0.9598613977,242.0045013,4.132816792,242.0045013,1.691463351,
239.9955902,0.1878461391,239.9955902,2.638190031,239.9955902,1.45681417,239.9955902,0.9137468338,239.9955902,1.040124059,239.9955902,3.745841265,239.9955902,1.82285285,
237.9863281,0.1916744262,237.9863281,2.861376762,237.9863281,1.59040606,237.9863281,1.025523901,237.9863281,1.154975176,237.9863281,10,237.9863281,1.943610072,
236.0161133,0.1956253201,236.0161133,3.099366426,236.0161133,1.758395076,236.0161133,1.152900219,236.0161133,1.305756211,236.0161133,3.855878115,236.0161133,2.132112741,
234.0061188,0.1994349211,234.0061188,3.253622055,234.0061188,1.95672369,234.0061188,1.347271919,234.0061188,1.495710254,234.0061188,3.787875652,234.0061188,2.335486412,
231.9957581,0.200750798,231.9957581,3.349851608,231.9957581,2.246047735,231.9957581,1.604514956,231.9957581,1.793235183,231.9957581,3.698857546,231.9957581,2.661453009,
229.9850311,0.2027835548,229.9850311,3.87158227,229.9850311,2.546275854,229.9850311,1.868421674,229.9850311,2.131320238,229.9850311,3.76297307,229.9850311,3.017590523,
228.0134277,0.2075801194,228.0134277,3.52194643,228.0134277,2.685996771,228.0134277,2.202360868,228.0134277,2.483294725,228.0134277,3.220676184,228.0134277,2.817903996,
226.0019836,0.2071411461,226.0019836,3.866180897,226.0019836,3.370223284,226.0019836,2.723285675,226.0019836,2.954151154,226.0019836,3.909624338,226.0019836,4.024786472,
223.9901886,0.2066388726,223.9901886,3.864543915,223.9901886,3.598840475,223.9901886,3.145748377,223.9901886,3.420045137,223.9901886,3.682690859,223.9901886,3.789533854,
222.0175171,0.2070776373,222.0175171,4.190275192,222.0175171,3.526036263,222.0175171,3.611323118,222.0175171,3.700802088,222.0175171,4.037108421,222.0175171,3.784947872,
220.0050507,0.2075276971,220.0050507,4.382595062,220.0050507,3.825908422,220.0050507,3.580163479,220.0050507,3.489626884,220.0050507,3.765577793,220.0050507,4.194085121,
217.9922333,0.2092860788,217.9922333,4.07062149,217.9922333,3.722237349,217.9922333,3.71378231,217.9922333,3.314798355,217.9922333,3.803374529,217.9922333,3.813585281,
216.0185547,0.2143518329,216.0185547,3.521285534,216.0185547,3.703771114,216.0185547,3.71037221,216.0185547,3.445649385,216.0185547,4.060907364,216.0185547,3.483219862,
214.0050659,0.2224526405,214.0050659,3.689721823,214.0050659,3.539494753,214.0050659,3.819782972,214.0050659,3.592020988,214.0050659,3.591475725,214.0050659,3.801691294,
211.9912415,0.2340197265,211.9912415,3.940131426,211.9912415,4.096513748,211.9912415,3.724547863,211.9912415,3.513756514,211.9912415,3.887584209,211.9912415,4.052124023,
210.0165863,0.2496016324,210.0165863,4.106472015,210.0165863,3.432453871,210.0165863,3.419569016,210.0165863,3.752296448,210.0165863,3.690357924,210.0165863,3.577228308,
208.0020905,0.2790417373,208.0020905,3.661907434,208.0020905,3.736707687,208.0020905,3.478779793,208.0020905,4.104483128,208.0020905,3.882588863,208.0020905,3.73815155,
205.9873047,0.3162184656,205.9873047,3.738494396,205.9873047,4.171488285,205.9873047,3.851946115,205.9873047,3.750306845,205.9873047,3.966958046,205.9873047,3.828553915,
204.011673,0.3464905322,204.011673,3.795275927,204.011673,3.81038332,204.011673,3.508148432,204.011673,3.827530146,204.011673,3.812679529,204.011673,3.479177475,
201.9962463,0.3710514009,201.9962463,3.580965281,201.9962463,4.027699947,201.9962463,3.609786034,201.9962463,3.661768198,201.9962463,4.040111065,201.9962463,3.847675562,
199.980484,0.3887831271,199.980484,3.512192249,199.980484,3.500679255,199.980484,3.683239937,199.980484,3.458864689,199.980484,3.61291337,199.980484,3.841468334,

sample1,
sample1
Collection Time: 05-10-2023 15:45:13
Operator Name  :
Scan Version 5.1.3.1042
Parameter List :
Instrument  Cary 60
Instrument Version  2.00
Start (nm)  800.0
Stop (nm)  200.0
X Mode  Nanometers
Y Mode  Abs
UV-Vis Scan Rate (nm/min)  9600.000
UV-Vis Data Interval (nm)  2.00
UV-Vis Ave. Time (sec)  0.0125
Beam Mode  Dual Beam
Baseline Correction  Off
Cycle Mode  Off
Method Log     :
Method Name    :
Date/Time stamp: 05-10-2023 15:44:30
Method Modifications:
Y Min Abs Changed: 05-10-2023 15:44:49, Old:    -0.05, New:     0.00
Common Interval nm Changed: 05-10-2023 15:44:49, Old:     5.00, New:     2.00
End Method Modifications
<Current Wavelength> , 248.0

sample2,
sample2
Collection Time: 05-10-2023 15:46:08
Operator Name  :
Scan Version 5.1.3.1042
Parameter List :
Instrument  Cary 60
Instrument Version  2.00
Start (nm)  800.0
Stop (nm)  200.0
X Mode  Nanometers
Y Mode  Abs
UV-Vis Scan Rate (nm/min)  9600.000
UV-Vis Data Interval (nm)  2.00
UV-Vis Ave. Time (sec)  0.0125
Beam Mode  Dual Beam
Baseline Correction  Off
Cycle Mode  Off
Method Log     :
Method Name    :
Date/Time stamp: 05-10-2023 15:44:30
Method Modifications:
Y Min Abs Changed: 05-10-2023 15:44:49, Old:    -0.05, New:     0.00
Common Interval nm Changed: 05-10-2023 15:44:49, Old:     5.00, New:     2.00
End Method Modifications
<Current Wavelength> , 228.0

sample3,
sample3
Collection Time: 05-10-2023 15:46:53
Operator Name  :
Scan Version 5.1.3.1042
Parameter List :
Instrument  Cary 60
Instrument Version  2.00
Start (nm)  800.0
Stop (nm)  200.0
X Mode  Nanometers
Y Mode  Abs
UV-Vis Scan Rate (nm/min)  9600.000
UV-Vis Data Interval (nm)  2.00
UV-Vis Ave. Time (sec)  0.0125
Beam Mode  Dual Beam
Baseline Correction  Off
Cycle Mode  Off
Method Log     :
Method Name    :
Date/Time stamp: 05-10-2023 15:44:30
Method Modifications:
Y Min Abs Changed: 05-10-2023 15:44:49, Old:    -0.05, New:     0.00
Common Interval nm Changed: 05-10-2023 15:44:49, Old:     5.00, New:     2.00
End Method Modifications
<Current Wavelength> , 264.1

sample4,
sample4
Collection Time: 05-10-2023 15:47:25
Operator Name  :
Scan Version 5.1.3.1042
Parameter List :
Instrument  Cary 60
Instrument Version  2.00
Start (nm)  800.0
Stop (nm)  200.0
X Mode  Nanometers
Y Mode  Abs
UV-Vis Scan Rate (nm/min)  9600.000
UV-Vis Data Interval (nm)  2.00
UV-Vis Ave. Time (sec)  0.0125
Beam Mode  Dual Beam
Baseline Correction  Off
Cycle Mode  Off
Method Log     :
Method Name    :
Date/Time stamp: 05-10-2023 15:44:30
Method Modifications:
Y Min Abs Changed: 05-10-2023 15:44:49, Old:    -0.05, New:     0.00
Common Interval nm Changed: 05-10-2023 15:44:49, Old:     5.00, New:     2.00
End Method Modifications
<Current Wavelength> , 284.1

sample5,
sample5
Collection Time: 05-10-2023 15:48:01
Operator Name  :
Scan Version 5.1.3.1042
Parameter List :
Instrument  Cary 60
Instrument Version  2.00
Start (nm)  800.0
Stop (nm)  200.0
X Mode  Nanometers
Y Mode  Abs
UV-Vis Scan Rate (nm/min)  9600.000
UV-Vis Data Interval (nm)  2.00
UV-Vis Ave. Time (sec)  0.0125
Beam Mode  Dual Beam
Baseline Correction  Off
Cycle Mode  Off
Method Log     :
Method Name    :
Date/Time stamp: 05-10-2023 15:44:30
Method Modifications:
Y Min Abs Changed: 05-10-2023 15:44:49, Old:    -0.05, New:     0.00
Common Interval nm Changed: 05-10-2023 15:44:49, Old:     5.00, New:     2.00
End Method Modifications
<Current Wavelength> , 270.0

sample6,
sample6
Collection Time: 05-10-2023 15:48:42
Operator Name  :
Scan Version 5.1.3.1042
Parameter List :
Instrument  Cary 60
Instrument Version  2.00
Start (nm)  800.0
Stop (nm)  200.0
X Mode  Nanometers
Y Mode  Abs
UV-Vis Scan Rate (nm/min)  9600.000
UV-Vis Data Interval (nm)  2.00
UV-Vis Ave. Time (sec)  0.0125
Beam Mode  Dual Beam
Baseline Correction  Off
Cycle Mode  Off
Method Log     :
Method Name    :
Date/Time stamp: 05-10-2023 15:44:30
Method Modifications:
Y Min Abs Changed: 05-10-2023 15:44:49, Old:    -0.05, New:     0.00
Common Interval nm Changed: 05-10-2023 15:44:49, Old:     5.00, New:     2.00
End Method Modifications
<Current Wavelength> , 270.0

sample7,
sample7
Collection Time: 05-10-2023 15:58:26
Operator Name  :
Scan Version 5.1.3.1042
Parameter List :
Instrument  Cary 60
Instrument Version  2.00
Start (nm)  800.0
Stop (nm)  200.0
X Mode  Nanometers
Y Mode  Abs
UV-Vis Scan Rate (nm/min)  9600.000
UV-Vis Data Interval (nm)  2.00
UV-Vis Ave. Time (sec)  0.0125
Beam Mode  Dual Beam
Baseline Correction  Off
Cycle Mode  Off
Method Log     :
Method Name    :
Date/Time stamp: 05-10-2023 15:44:30
Method Modifications:
Y Min Abs Changed: 05-10-2023 15:44:49, Old:    -0.05, New:     0.00
Common Interval nm Changed: 05-10-2023 15:44:49, Old:     5.00, New:     2.00
End Method Modifications
<Current Wavelength> , 216.0

